# frequency 	 Intensity 
 1747.54509  	     0.000032020  
 1747.62786  	     0.000032012  
 1747.71063  	     0.000032003  
 1747.79340  	     0.000031994  
 1747.87617  	     0.000031985  
 1747.95894  	     0.000031976  
 1748.04171  	     0.000031967  
 1748.12449  	     0.000031958  
 1748.20726  	     0.000031949  
 1748.29003  	     0.000031939  
 1748.37280  	     0.000031930  
 1748.45557  	     0.000031921  
 1748.53834  	     0.000031911  
 1748.62111  	     0.000031902  
 1748.70388  	     0.000031892  
 1748.78665  	     0.000031883  
 1748.86942  	     0.000031873  
 1748.95219  	     0.000031864  
 1749.03496  	     0.000031855  
 1749.11773  	     0.000031845  
 1749.20050  	     0.000031836  
 1749.28327  	     0.000031826  
 1749.36604  	     0.000031817  
 1749.44881  	     0.000031808  
 1749.53158  	     0.000031799  
 1749.61435  	     0.000031789  
 1749.69712  	     0.000031780  
 1749.77989  	     0.000031771  
 1749.86266  	     0.000031762  
 1749.94543  	     0.000031753  
 1750.02820  	     0.000031744  
 1750.11097  	     0.000031735  
 1750.19374  	     0.000031727  
 1750.27651  	     0.000031718  
 1750.35928  	     0.000031710  
 1750.44205  	     0.000031701  
 1750.52482  	     0.000031693  
 1750.60759  	     0.000031685  
 1750.69036  	     0.000031677  
 1750.77313  	     0.000031669  
 1750.85590  	     0.000031661  
 1750.93867  	     0.000031653  
 1751.02144  	     0.000031646  
 1751.10421  	     0.000031638  
 1751.18698  	     0.000031631  
 1751.26975  	     0.000031624  
 1751.35252  	     0.000031617  
 1751.43529  	     0.000031610  
 1751.51807  	     0.000031604  
 1751.60084  	     0.000031598  
 1751.68361  	     0.000031591  
 1751.76638  	     0.000031585  
 1751.84915  	     0.000031579  
 1751.93192  	     0.000031574  
 1752.01469  	     0.000031568  
 1752.09746  	     0.000031563  
 1752.18023  	     0.000031558  
 1752.26300  	     0.000031553  
 1752.34577  	     0.000031549  
 1752.42854  	     0.000031544  
 1752.51131  	     0.000031540  
 1752.59408  	     0.000031536  
 1752.67685  	     0.000031533  
 1752.75962  	     0.000031529  
 1752.84239  	     0.000031526  
 1752.92516  	     0.000031523  
 1753.00793  	     0.000031520  
 1753.09070  	     0.000031518  
 1753.17347  	     0.000031516  
 1753.25624  	     0.000031514  
 1753.33901  	     0.000031512  
 1753.42178  	     0.000031510  
 1753.50455  	     0.000031509  
 1753.58732  	     0.000031508  
 1753.67009  	     0.000031508  
 1753.75286  	     0.000031507  
 1753.83563  	     0.000031507  
 1753.91840  	     0.000031507  
 1754.00117  	     0.000031508  
 1754.08394  	     0.000031509  
 1754.16671  	     0.000031510  
 1754.24948  	     0.000031511  
 1754.33225  	     0.000031512  
 1754.41502  	     0.000031514  
 1754.49779  	     0.000031517  
 1754.58056  	     0.000031519  
 1754.66333  	     0.000031522  
 1754.74610  	     0.000031525  
 1754.82887  	     0.000031528  
 1754.91165  	     0.000031532  
 1754.99442  	     0.000031536  
 1755.07719  	     0.000031540  
 1755.15996  	     0.000031545  
 1755.24273  	     0.000031550  
 1755.32550  	     0.000031555  
 1755.40827  	     0.000031561  
 1755.49104  	     0.000031567  
 1755.57381  	     0.000031573  
 1755.65658  	     0.000031579  
 1755.73935  	     0.000031586  
 1755.82212  	     0.000031593  
 1755.90489  	     0.000031601  
 1755.98766  	     0.000031609  
 1756.07043  	     0.000031617  
 1756.15320  	     0.000031625  
 1756.23597  	     0.000031634  
 1756.31874  	     0.000031643  
 1756.40151  	     0.000031653  
 1756.48428  	     0.000031662  
 1756.56705  	     0.000031672  
 1756.64982  	     0.000031683  
 1756.73259  	     0.000031694  
 1756.81536  	     0.000031705  
 1756.89813  	     0.000031716  
 1756.98090  	     0.000031728  
 1757.06367  	     0.000031740  
 1757.14644  	     0.000031752  
 1757.22921  	     0.000031765  
 1757.31198  	     0.000031778  
 1757.39475  	     0.000031791  
 1757.47752  	     0.000031805  
 1757.56029  	     0.000031819  
 1757.64306  	     0.000031833  
 1757.72583  	     0.000031848  
 1757.80860  	     0.000031863  
 1757.89137  	     0.000031879  
 1757.97414  	     0.000031894  
 1758.05691  	     0.000031910  
 1758.13968  	     0.000031927  
 1758.22246  	     0.000031943  
 1758.30523  	     0.000031960  
 1758.38800  	     0.000031978  
 1758.47077  	     0.000031995  
 1758.55354  	     0.000032013  
 1758.63631  	     0.000032032  
 1758.71908  	     0.000032050  
 1758.80185  	     0.000032069  
 1758.88462  	     0.000032089  
 1758.96739  	     0.000032108  
 1759.05016  	     0.000032128  
 1759.13293  	     0.000032149  
 1759.21570  	     0.000032169  
 1759.29847  	     0.000032190  
 1759.38124  	     0.000032211  
 1759.46401  	     0.000032233  
 1759.54678  	     0.000032255  
 1759.62955  	     0.000032277  
 1759.71232  	     0.000032299  
 1759.79509  	     0.000032322  
 1759.87786  	     0.000032345  
 1759.96063  	     0.000032369  
 1760.04340  	     0.000032393  
 1760.12617  	     0.000032417  
 1760.20894  	     0.000032441  
 1760.29171  	     0.000032466  
 1760.37448  	     0.000032491  
 1760.45725  	     0.000032516  
 1760.54002  	     0.000032542  
 1760.62279  	     0.000032568  
 1760.70556  	     0.000032594  
 1760.78833  	     0.000032620  
 1760.87110  	     0.000032647  
 1760.95387  	     0.000032674  
 1761.03664  	     0.000032702  
 1761.11941  	     0.000032730  
 1761.20218  	     0.000032758  
 1761.28495  	     0.000032786  
 1761.36772  	     0.000032815  
 1761.45049  	     0.000032844  
 1761.53326  	     0.000032873  
 1761.61604  	     0.000032902  
 1761.69881  	     0.000032932  
 1761.78158  	     0.000032962  
 1761.86435  	     0.000032993  
 1761.94712  	     0.000033023  
 1762.02989  	     0.000033054  
 1762.11266  	     0.000033085  
 1762.19543  	     0.000033117  
 1762.27820  	     0.000033149  
 1762.36097  	     0.000033181  
 1762.44374  	     0.000033213  
 1762.52651  	     0.000033245  
 1762.60928  	     0.000033278  
 1762.69205  	     0.000033311  
 1762.77482  	     0.000033345  
 1762.85759  	     0.000033378  
 1762.94036  	     0.000033412  
 1763.02313  	     0.000033447  
 1763.10590  	     0.000033481  
 1763.18867  	     0.000033516  
 1763.27144  	     0.000033551  
 1763.35421  	     0.000033586  
 1763.43698  	     0.000033621  
 1763.51975  	     0.000033657  
 1763.60252  	     0.000033693  
 1763.68529  	     0.000033729  
 1763.76806  	     0.000033766  
 1763.85083  	     0.000033802  
 1763.93360  	     0.000033839  
 1764.01637  	     0.000033877  
 1764.09914  	     0.000033914  
 1764.18191  	     0.000033952  
 1764.26468  	     0.000033990  
 1764.34745  	     0.000034028  
 1764.43022  	     0.000034066  
 1764.51299  	     0.000034105  
 1764.59576  	     0.000034143  
 1764.67853  	     0.000034182  
 1764.76130  	     0.000034222  
 1764.84407  	     0.000034261  
 1764.92684  	     0.000034301  
 1765.00962  	     0.000034341  
 1765.09239  	     0.000034381  
 1765.17516  	     0.000034421  
 1765.25793  	     0.000034461  
 1765.34070  	     0.000034502  
 1765.42347  	     0.000034543  
 1765.50624  	     0.000034584  
 1765.58901  	     0.000034625  
 1765.67178  	     0.000034667  
 1765.75455  	     0.000034709  
 1765.83732  	     0.000034750  
 1765.92009  	     0.000034792  
 1766.00286  	     0.000034835  
 1766.08563  	     0.000034877  
 1766.16840  	     0.000034920  
 1766.25117  	     0.000034962  
 1766.33394  	     0.000035005  
 1766.41671  	     0.000035048  
 1766.49948  	     0.000035092  
 1766.58225  	     0.000035135  
 1766.66502  	     0.000035179  
 1766.74779  	     0.000035222  
 1766.83056  	     0.000035266  
 1766.91333  	     0.000035310  
 1766.99610  	     0.000035354  
 1767.07887  	     0.000035399  
 1767.16164  	     0.000035443  
 1767.24441  	     0.000035488  
 1767.32718  	     0.000035532  
 1767.40995  	     0.000035577  
 1767.49272  	     0.000035622  
 1767.57549  	     0.000035667  
 1767.65826  	     0.000035712  
 1767.74103  	     0.000035757  
 1767.82380  	     0.000035803  
 1767.90657  	     0.000035848  
 1767.98934  	     0.000035894  
 1768.07211  	     0.000035940  
 1768.15488  	     0.000035985  
 1768.23765  	     0.000036031  
 1768.32042  	     0.000036077  
 1768.40320  	     0.000036123  
 1768.48597  	     0.000036169  
 1768.56874  	     0.000036215  
 1768.65151  	     0.000036261  
 1768.73428  	     0.000036308  
 1768.81705  	     0.000036354  
 1768.89982  	     0.000036400  
 1768.98259  	     0.000036447  
 1769.06536  	     0.000036493  
 1769.14813  	     0.000036540  
 1769.23090  	     0.000036586  
 1769.31367  	     0.000036633  
 1769.39644  	     0.000036679  
 1769.47921  	     0.000036726  
 1769.56198  	     0.000036773  
 1769.64475  	     0.000036819  
 1769.72752  	     0.000036866  
 1769.81029  	     0.000036912  
 1769.89306  	     0.000036959  
 1769.97583  	     0.000037006  
 1770.05860  	     0.000037052  
 1770.14137  	     0.000037099  
 1770.22414  	     0.000037145  
 1770.30691  	     0.000037192  
 1770.38968  	     0.000037238  
 1770.47245  	     0.000037284  
 1770.55522  	     0.000037331  
 1770.63799  	     0.000037377  
 1770.72076  	     0.000037423  
 1770.80353  	     0.000037469  
 1770.88630  	     0.000037515  
 1770.96907  	     0.000037561  
 1771.05184  	     0.000037607  
 1771.13461  	     0.000037653  
 1771.21738  	     0.000037699  
 1771.30015  	     0.000037744  
 1771.38292  	     0.000037790  
 1771.46569  	     0.000037835  
 1771.54846  	     0.000037880  
 1771.63123  	     0.000037925  
 1771.71401  	     0.000037970  
 1771.79678  	     0.000038015  
 1771.87955  	     0.000038060  
 1771.96232  	     0.000038104  
 1772.04509  	     0.000038149  
 1772.12786  	     0.000038193  
 1772.21063  	     0.000038237  
 1772.29340  	     0.000038281  
 1772.37617  	     0.000038324  
 1772.45894  	     0.000038368  
 1772.54171  	     0.000038411  
 1772.62448  	     0.000038454  
 1772.70725  	     0.000038496  
 1772.79002  	     0.000038539  
 1772.87279  	     0.000038581  
 1772.95556  	     0.000038623  
 1773.03833  	     0.000038665  
 1773.12110  	     0.000038707  
 1773.20387  	     0.000038748  
 1773.28664  	     0.000038789  
 1773.36941  	     0.000038830  
 1773.45218  	     0.000038870  
 1773.53495  	     0.000038911  
 1773.61772  	     0.000038950  
 1773.70049  	     0.000038990  
 1773.78326  	     0.000039029  
 1773.86603  	     0.000039068  
 1773.94880  	     0.000039107  
 1774.03157  	     0.000039145  
 1774.11434  	     0.000039183  
 1774.19711  	     0.000039221  
 1774.27988  	     0.000039258  
 1774.36265  	     0.000039295  
 1774.44542  	     0.000039332  
 1774.52819  	     0.000039368  
 1774.61096  	     0.000039404  
 1774.69373  	     0.000039439  
 1774.77650  	     0.000039474  
 1774.85927  	     0.000039509  
 1774.94204  	     0.000039543  
 1775.02481  	     0.000039577  
 1775.10759  	     0.000039610  
 1775.19036  	     0.000039643  
 1775.27313  	     0.000039675  
 1775.35590  	     0.000039707  
 1775.43867  	     0.000039739  
 1775.52144  	     0.000039770  
 1775.60421  	     0.000039801  
 1775.68698  	     0.000039831  
 1775.76975  	     0.000039861  
 1775.85252  	     0.000039890  
 1775.93529  	     0.000039919  
 1776.01806  	     0.000039947  
 1776.10083  	     0.000039975  
 1776.18360  	     0.000040002  
 1776.26637  	     0.000040029  
 1776.34914  	     0.000040055  
 1776.43191  	     0.000040081  
 1776.51468  	     0.000040106  
 1776.59745  	     0.000040130  
 1776.68022  	     0.000040154  
 1776.76299  	     0.000040178  
 1776.84576  	     0.000040201  
 1776.92853  	     0.000040223  
 1777.01130  	     0.000040245  
 1777.09407  	     0.000040266  
 1777.17684  	     0.000040287  
 1777.25961  	     0.000040307  
 1777.34238  	     0.000040326  
 1777.42515  	     0.000040345  
 1777.50792  	     0.000040363  
 1777.59069  	     0.000040381  
 1777.67346  	     0.000040398  
 1777.75623  	     0.000040414  
 1777.83900  	     0.000040430  
 1777.92177  	     0.000040445  
 1778.00454  	     0.000040460  
 1778.08731  	     0.000040474  
 1778.17008  	     0.000040487  
 1778.25285  	     0.000040499  
 1778.33562  	     0.000040511  
 1778.41839  	     0.000040522  
 1778.50117  	     0.000040533  
 1778.58394  	     0.000040543  
 1778.66671  	     0.000040552  
 1778.74948  	     0.000040561  
 1778.83225  	     0.000040569  
 1778.91502  	     0.000040576  
 1778.99779  	     0.000040582  
 1779.08056  	     0.000040588  
 1779.16333  	     0.000040593  
 1779.24610  	     0.000040598  
 1779.32887  	     0.000040601  
 1779.41164  	     0.000040604  
 1779.49441  	     0.000040606  
 1779.57718  	     0.000040608  
 1779.65995  	     0.000040609  
 1779.74272  	     0.000040609  
 1779.82549  	     0.000040609  
 1779.90826  	     0.000040607  
 1779.99103  	     0.000040605  
 1780.07380  	     0.000040602  
 1780.15657  	     0.000040599  
 1780.23934  	     0.000040595  
 1780.32211  	     0.000040590  
 1780.40488  	     0.000040584  
 1780.48765  	     0.000040578  
 1780.57042  	     0.000040571  
 1780.65319  	     0.000040563  
 1780.73596  	     0.000040554  
 1780.81873  	     0.000040545  
 1780.90150  	     0.000040535  
 1780.98427  	     0.000040524  
 1781.06704  	     0.000040513  
 1781.14981  	     0.000040500  
 1781.23258  	     0.000040487  
 1781.31535  	     0.000040474  
 1781.39812  	     0.000040459  
 1781.48089  	     0.000040444  
 1781.56366  	     0.000040428  
 1781.64643  	     0.000040411  
 1781.72920  	     0.000040394  
 1781.81198  	     0.000040376  
 1781.89475  	     0.000040357  
 1781.97752  	     0.000040338  
 1782.06029  	     0.000040317  
 1782.14306  	     0.000040296  
 1782.22583  	     0.000040274  
 1782.30860  	     0.000040252  
 1782.39137  	     0.000040229  
 1782.47414  	     0.000040205  
 1782.55691  	     0.000040180  
 1782.63968  	     0.000040155  
 1782.72245  	     0.000040129  
 1782.80522  	     0.000040102  
 1782.88799  	     0.000040075  
 1782.97076  	     0.000040046  
 1783.05353  	     0.000040018  
 1783.13630  	     0.000039988  
 1783.21907  	     0.000039958  
 1783.30184  	     0.000039927  
 1783.38461  	     0.000039895  
 1783.46738  	     0.000039863  
 1783.55015  	     0.000039830  
 1783.63292  	     0.000039796  
 1783.71569  	     0.000039762  
 1783.79846  	     0.000039727  
 1783.88123  	     0.000039692  
 1783.96400  	     0.000039655  
 1784.04677  	     0.000039618  
 1784.12954  	     0.000039581  
 1784.21231  	     0.000039543  
 1784.29508  	     0.000039504  
 1784.37785  	     0.000039465  
 1784.46062  	     0.000039424  
 1784.54339  	     0.000039384  
 1784.62616  	     0.000039343  
 1784.70893  	     0.000039301  
 1784.79170  	     0.000039258  
 1784.87447  	     0.000039215  
 1784.95724  	     0.000039172  
 1785.04001  	     0.000039128  
 1785.12278  	     0.000039083  
 1785.20556  	     0.000039037  
 1785.28833  	     0.000038992  
 1785.37110  	     0.000038945  
 1785.45387  	     0.000038898  
 1785.53664  	     0.000038851  
 1785.61941  	     0.000038803  
 1785.70218  	     0.000038754  
 1785.78495  	     0.000038705  
 1785.86772  	     0.000038656  
 1785.95049  	     0.000038606  
 1786.03326  	     0.000038555  
 1786.11603  	     0.000038504  
 1786.19880  	     0.000038453  
 1786.28157  	     0.000038401  
 1786.36434  	     0.000038348  
 1786.44711  	     0.000038296  
 1786.52988  	     0.000038242  
 1786.61265  	     0.000038189  
 1786.69542  	     0.000038135  
 1786.77819  	     0.000038080  
 1786.86096  	     0.000038025  
 1786.94373  	     0.000037970  
 1787.02650  	     0.000037914  
 1787.10927  	     0.000037858  
 1787.19204  	     0.000037802  
 1787.27481  	     0.000037745  
 1787.35758  	     0.000037688  
 1787.44035  	     0.000037630  
 1787.52312  	     0.000037572  
 1787.60589  	     0.000037514  
 1787.68866  	     0.000037456  
 1787.77143  	     0.000037397  
 1787.85420  	     0.000037338  
 1787.93697  	     0.000037279  
 1788.01974  	     0.000037219  
 1788.10251  	     0.000037159  
 1788.18528  	     0.000037099  
 1788.26805  	     0.000037038  
 1788.35082  	     0.000036978  
 1788.43359  	     0.000036917  
 1788.51636  	     0.000036856  
 1788.59914  	     0.000036794  
 1788.68191  	     0.000036733  
 1788.76468  	     0.000036671  
 1788.84745  	     0.000036609  
 1788.93022  	     0.000036547  
 1789.01299  	     0.000036485  
 1789.09576  	     0.000036422  
 1789.17853  	     0.000036360  
 1789.26130  	     0.000036297  
 1789.34407  	     0.000036234  
 1789.42684  	     0.000036171  
 1789.50961  	     0.000036108  
 1789.59238  	     0.000036045  
 1789.67515  	     0.000035981  
 1789.75792  	     0.000035918  
 1789.84069  	     0.000035855  
 1789.92346  	     0.000035791  
 1790.00623  	     0.000035727  
 1790.08900  	     0.000035664  
 1790.17177  	     0.000035600  
 1790.25454  	     0.000035536  
 1790.33731  	     0.000035473  
 1790.42008  	     0.000035409  
 1790.50285  	     0.000035345  
 1790.58562  	     0.000035281  
 1790.66839  	     0.000035217  
 1790.75116  	     0.000035154  
 1790.83393  	     0.000035090  
 1790.91670  	     0.000035026  
 1790.99947  	     0.000034962  
 1791.08224  	     0.000034899  
 1791.16501  	     0.000034835  
 1791.24778  	     0.000034772  
 1791.33055  	     0.000034708  
 1791.41332  	     0.000034645  
 1791.49609  	     0.000034581  
 1791.57886  	     0.000034518  
 1791.66163  	     0.000034455  
 1791.74440  	     0.000034392  
 1791.82717  	     0.000034329  
 1791.90994  	     0.000034266  
 1791.99272  	     0.000034204  
 1792.07549  	     0.000034141  
 1792.15826  	     0.000034079  
 1792.24103  	     0.000034017  
 1792.32380  	     0.000033955  
 1792.40657  	     0.000033893  
 1792.48934  	     0.000033831  
 1792.57211  	     0.000033769  
 1792.65488  	     0.000033708  
 1792.73765  	     0.000033647  
 1792.82042  	     0.000033585  
 1792.90319  	     0.000033525  
 1792.98596  	     0.000033464  
 1793.06873  	     0.000033403  
 1793.15150  	     0.000033343  
 1793.23427  	     0.000033283  
 1793.31704  	     0.000033223  
 1793.39981  	     0.000033164  
 1793.48258  	     0.000033104  
 1793.56535  	     0.000033045  
 1793.64812  	     0.000032986  
 1793.73089  	     0.000032927  
 1793.81366  	     0.000032869  
 1793.89643  	     0.000032811  
 1793.97920  	     0.000032753  
 1794.06197  	     0.000032695  
 1794.14474  	     0.000032638  
 1794.22751  	     0.000032581  
 1794.31028  	     0.000032524  
 1794.39305  	     0.000032467  
 1794.47582  	     0.000032411  
 1794.55859  	     0.000032354  
 1794.64136  	     0.000032299  
 1794.72413  	     0.000032243  
 1794.80690  	     0.000032188  
 1794.88967  	     0.000032133  
 1794.97244  	     0.000032078  
 1795.05521  	     0.000032023  
 1795.13798  	     0.000031969  
 1795.22075  	     0.000031915  
 1795.30353  	     0.000031862  
 1795.38630  	     0.000031808  
 1795.46907  	     0.000031755  
 1795.55184  	     0.000031703  
 1795.63461  	     0.000031650  
 1795.71738  	     0.000031598  
 1795.80015  	     0.000031546  
 1795.88292  	     0.000031495  
 1795.96569  	     0.000031443  
 1796.04846  	     0.000031392  
 1796.13123  	     0.000031342  
 1796.21400  	     0.000031291  
 1796.29677  	     0.000031241  
 1796.37954  	     0.000031191  
 1796.46231  	     0.000031142  
 1796.54508  	     0.000031092  
 1796.62785  	     0.000031043  
 1796.71062  	     0.000030995  
 1796.79339  	     0.000030946  
 1796.87616  	     0.000030898  
 1796.95893  	     0.000030850  
 1797.04170  	     0.000030803  
 1797.12447  	     0.000030756  
 1797.20724  	     0.000030709  
 1797.29001  	     0.000030662  
 1797.37278  	     0.000030615  
 1797.45555  	     0.000030569  
 1797.53832  	     0.000030523  
